Frekvence [Hz],Dolni propust [V],Horni propust [V],Dolni propust 2 [V],Horni propust 2 [V]
4.7,13.84,2.48,14,0.2
10,13.12,4.8,14,0.24
22,10.96,8.64,14,0.4
47,7.28,11.92,14,0.56
100,4.08,13.36,14,1.04
220,2,13.84,13.92,2.16
470,1.04,14,13.36,4.2
1000,0.24,14,11.44,7.6
2200,0.24,14,7.92,11
4700,0.24,14,4.4,12.72
10000,0.24,14,2.16,12.64
22000,0.24,14,1.12,13.36
47000,0.24,14,0.64,13.52
